# Macroscopic dielectric function epsm
#
# Momentum transfer Q=G+q in lattice cooridnates
# G:   0   0   0
# q:   0.0000000   0.0000000   0.0000000
# Momentum transfer Q=G+q in Cartesian cooridnates
# G:   0.0000000   0.0000000   0.0000000
# q:   0.0000000   0.0000000   0.0000000
# Norm2(G+q)   0.0000000
#
# Energy scale=   27.211384
# Used broadening in scaled energy units:    0.149663
#
# Number of k-points=      27
# Unit cell volume [au]=   76.761035
# Coulomb potential v(Q) [au]=          0.000000
#
#             Frequency                Re(epsm)                Im(epsm)       Re(epsm) form KKT
+0.0000000000000000E+00 +0.9505853905911710E+01 +0.7536356786581349E-17 +0.9505171472183715E+01
+0.3628184514666666E-01 +0.9506059934066265E+01 +0.1703564981340269E-02 +0.9504888252218032E+01
+0.7256369029333333E-01 +0.9506678098609241E+01 +0.3407795164373217E-02 +0.9505533327637423E+01
+0.1088455354400000E+00 +0.9507708639872837E+01 +0.5113356539050654E-02 +0.9506635210776944E+01
+0.1451273805866667E+00 +0.9509151958724901E+01 +0.6820916673770680E-02 +0.9508052638216373E+01
+0.1814092257333333E+00 +0.9511008617041098E+01 +0.8531145509429187E-02 +0.9509913995420252E+01
+0.2176910708800000E+00 +0.9513279338367438E+01 +0.1024471615928777E-01 +0.9512180372241362E+01
+0.2539729160266667E+00 +0.9515965008774941E+01 +0.1196230571663369E-01 +0.9514865103236076E+01
+0.2902547611733333E+00 +0.9519066677908429E+01 +0.1368459607224106E-01 +0.9517964545893074E+01
+0.3265366063200000E+00 +0.9522585560231949E+01 +0.1541227474368183E-01 +0.9521481342926339E+01
+0.3628184514666666E+00 +0.9526523036474073E+01 +0.1714603571858498E-01 +0.9525416382128116E+01
+0.3991002966133333E+00 +0.9530880655276395E+01 +0.1888658031400196E-01 +0.9529771346125255E+01
+0.4353821417600000E+00 +0.9535660135049460E+01 +0.2063461805410209E-01 +0.9534547901844780E+01
+0.4716639869066667E+00 +0.9540863366040716E+01 +0.2239086756850127E-01 +0.9539747947292796E+01
+0.5079458320533333E+00 +0.9546492412619543E+01 +0.2415605751361446E-01 +0.9545373538052955E+01
+0.5442276772000001E+00 +0.9552549515785202E+01 +0.2593092751952100E-01 +0.9551426911599046E+01
+0.5805095223466666E+00 +0.9559037095903966E+01 +0.2771622916494291E-01 +0.9557910483205690E+01
+0.6167913674933333E+00 +0.9565957755682559E+01 +0.2951272698305878E-01 +0.9564826850721532E+01
+0.6530732126400001E+00 +0.9573314283385226E+01 +0.3132119950101015E-01 +0.9572178797149654E+01
+0.6893550577866667E+00 +0.9581109656303063E+01 +0.3314244031611024E-01 +0.9579969294230892E+01
+0.7256369029333333E+00 +0.9589347044484407E+01 +0.3497725921192521E-01 +0.9588201506092716E+01
+0.7619187480800000E+00 +0.9598029814736272E+01 +0.3682648331758244E-01 +0.9596878793236332E+01
+0.7982005932266667E+00 +0.9607161534907300E+01 +0.3869095831385622E-01 +0.9606004716791931E+01
+0.8344824383733334E+00 +0.9616745978463818E+01 +0.4057154968979960E-01 +0.9615583043073100E+01
+0.8707642835200000E+00 +0.9626787129371328E+01 +0.4246914405392586E-01 +0.9625617748435468E+01
+0.9070461286666667E+00 +0.9637289187294776E+01 +0.4438465050420570E-01 +0.9636113024454701E+01
+0.9433279738133333E+00 +0.9648256573132123E+01 +0.4631900206142497E-01 +0.9647073283436011E+01
+0.9796098189600000E+00 +0.9659693934896485E+01 +0.4827315717075986E-01 +0.9658503164271476E+01
+0.1015891664106667E+01 +0.9671606153963756E+01 +0.5024810127676253E-01 +0.9670407538661394E+01
+0.1052173509253334E+01 +0.9683998351703456E+01 +0.5224484847731625E-01 +0.9682791517716600E+01
+0.1088455354400000E+01 +0.9696875896512228E+01 +0.5426444326252435E-01 +0.9695660458962045E+01
+0.1124737199546667E+01 +0.9710244411270542E+01 +0.5630796234493208E-01 +0.9709019973761048E+01
+0.1161019044693333E+01 +0.9724109781245039E+01 +0.5837651658796083E-01 +0.9722875935183179E+01
+0.1197300889840000E+01 +0.9738478162460405E+01 +0.6047125303995707E-01 +0.9737234486338833E+01
+0.1233582734986667E+01 +0.9753355990566366E+01 +0.6259335708182913E-01 +0.9752102049206270E+01
+0.1269864580133333E+01 +0.9768749990227725E+01 +0.6474405469686915E-01 +0.9767485333978918E+01
+0.1306146425280000E+01 +0.9784667185066857E+01 +0.6692461487204200E-01 +0.9783391348961636E+01
+0.1342428270426667E+01 +0.9801114908191037E+01 +0.6913635214076876E-01 +0.9799827411048550E+01
+0.1378710115573333E+01 +0.9818100813338592E+01 +0.7138062927805179E-01 +0.9816801156815687E+01
+0.1414991960720000E+01 +0.9835632886681234E+01 +0.7365886015968758E-01 +0.9834320554266016E+01
+0.1451273805866667E+01 +0.9853719459322280E+01 +0.7597251279829234E-01 +0.9852393915265621E+01
+0.1487555651013333E+01 +0.9872369220533741E+01 +0.7832311256994993E-01 +0.9871029908714258E+01
+0.1523837496160000E+01 +0.9891591231778575E+01 +0.8071224564647589E-01 +0.9890237574495613E+01
+0.1560119341306667E+01 +0.9911394941567938E+01 +0.8314156264959141E-01 +0.9910026338256912E+01
+0.1596401186453333E+01 +0.9931790201207322E+01 +0.8561278254473942E-01 +0.9930406027071356E+01
+0.1632683031600000E+01 +0.9952787281489718E+01 +0.8812769679385075E-01 +0.9951386886040707E+01
+0.1668964876746667E+01 +0.9974396890398305E+01 +0.9068817378810631E-01 +0.9972979595900295E+01
+0.1705246721893333E+01 +0.9996630191886922E+01 +0.9329616358366373E-01 +0.9995195291693504E+01
+0.1741528567040000E+01 +0.1001949882581119E+02 +0.9595370296543114E-01 +0.1001804558258831E+02
+0.1777810412186667E+01 +0.1004301492908995E+02 +0.9866292086631374E-01 +0.1004154257291463E+02
+0.1814092257333333E+01 +0.1006719115818298E+02 +0.1014260441719509E+00 +0.1006569888450751E+02
+0.1850374102480000E+01 +0.1009204071297788E+02 +0.1042454039438219E+00 +0.1009052768044782E+02
+0.1886655947626667E+01 +0.1011757736218772E+02 +0.1071234420967908E+00 +0.1011604269030135E+02
+0.1922937792773334E+01 +0.1014381547036844E+02 +0.1100627185706748E+00 +0.1014225823696381E+02
+0.1959219637920000E+01 +0.1017077002667592E+02 +0.1130659190393575E+00 +0.1016918926523024E+02
+0.1995501483066667E+01 +0.1019845667549173E+02 +0.1161358632053119E+00 +0.1019685137221661E+02
+0.2031783328213333E+01 +0.1022689174905905E+02 +0.1192755137322779E+00 +0.1022526083977293E+02
+0.2068065173360000E+01 +0.1025609230228209E+02 +0.1224879858742321E+00 +0.1025443466903994E+02
+0.2104347018506667E+01 +0.1028607614985675E+02 +0.1257765578648481E+00 +0.1028439061731429E+02
+0.2140628863653333E+01 +0.1031686190591524E+02 +0.1291446821384089E+00 +0.1031514723740326E+02
+0.2176910708800000E+01 +0.1034846902638440E+02 +0.1325959974606806E+00 +0.1034672391966565E+02
+0.2213192553946667E+01 +0.1038091785427617E+02 +0.1361343420567552E+00 +0.1037914093695448E+02
+0.2249474399093333E+01 +0.1041422966814932E+02 +0.1397637678323767E+00 +0.1041241949269731E+02
+0.2285756244240000E+01 +0.1044842673400422E+02 +0.1434885557959588E+00 +0.1044658177237232E+02
+0.2322038089386667E+01 +0.1048353236089834E+02 +0.1473132328005487E+00 +0.1048165099866323E+02
+0.2358319934533334E+01 +0.1051957096059782E+02 +0.1512425897385524E+00 +0.1051765149060439E+02
+0.2394601779680000E+01 +0.1055656811161229E+02 +0.1552817013373528E+00 +0.1055460872705697E+02
+0.2430883624826667E+01 +0.1059455062799481E+02 +0.1594359477212791E+00 +0.1059254941489281E+02
+0.2467165469973333E+01 +0.1063354663332788E+02 +0.1637110379249836E+00 +0.1063150156229963E+02
+0.2503447315120000E+01 +0.1067358564035989E+02 +0.1681130355655338E+00 +0.1067149455766445E+02
+0.2539729160266667E+01 +0.1071469863680541E+02 +0.1726483869057943E+00 +0.1071255925453914E+02
+0.2576011005413333E+01 +0.1075691817787657E+02 +0.1773239515704377E+00 +0.1075472806324649E+02
+0.2612292850560000E+01 +0.1080027848617457E+02 +0.1821470362087115E+00 +0.1079803504974287E+02
+0.2648574695706666E+01 +0.1084481555963859E+02 +0.1871254314355433E+00 +0.1084251604242293E+02
+0.2684856540853334E+01 +0.1089056728832680E+02 +0.1922674524254270E+00 +0.1088820874762500E+02
+0.2721138386000000E+01 +0.1093757358089106E+02 +0.1975819835826663E+00 +0.1093515287468233E+02
+0.2757420231146667E+01 +0.1098587650170506E+02 +0.2030785277680028E+00 +0.1098339027145966E+02
+0.2793702076293334E+01 +0.1103552041971697E+02 +0.2087672606266375E+00 +0.1103296507142316E+02
+0.2829983921440000E+01 +0.1108655217022269E+02 +0.2146590906375927E+00 +0.1108392385341424E+02
+0.2866265766586667E+01 +0.1113902123089898E+02 +0.2207657255910258E+00 +0.1113631581543534E+02
+0.2902547611733333E+01 +0.1119297991359748E+02 +0.2270997463004654E+00 +0.1119019296391346E+02
+0.2938829456880000E+01 +0.1124848357358468E+02 +0.2336746884735198E+00 +0.1124561032008605E+02
+0.2975111302026666E+01 +0.1130559083812383E+02 +0.2405051338002685E+00 +0.1130262614535633E+02
+0.3011393147173334E+01 +0.1136436385653446E+02 +0.2476068114768393E+00 +0.1136130218769932E+02
+0.3047674992320000E+01 +0.1142486857414077E+02 +0.2549967115668300E+00 +0.1142170395146267E+02
+0.3083956837466667E+01 +0.1148717503283546E+02 +0.2626932118203605E+00 +0.1148390099321441E+02
+0.3120238682613333E+01 +0.1155135770134878E+02 +0.2707162198258467E+00 +0.1154796724663434E+02
+0.3156520527760000E+01 +0.1161749583873064E+02 +0.2790873326706055E+00 +0.1161398137985317E+02
+0.3192802372906667E+01 +0.1168567389503619E+02 +0.2878300166423685E+00 +0.1168202718910176E+02
+0.3229084218053333E+01 +0.1175598195376456E+02 +0.2969698099258737E+00 +0.1175219403307096E+02
+0.3265366063200000E+01 +0.1182851622124815E+02 +0.3065345517508832E+00 +0.1182457731300152E+02
+0.3301647908346667E+01 +0.1190337956894370E+02 +0.3165546420471503E+00 +0.1189927900424157E+02
+0.3337929753493333E+01 +0.1198068213545464E+02 +0.3270633363792668E+00 +0.1197640824584683E+02
+0.3374211598640000E+01 +0.1206054199614061E+02 +0.3380970817960881E+00 +0.1205608199577115E+02
+0.3410493443786667E+01 +0.1214308590937195E+02 +0.3496959002683001E+00 +0.1213842576033527E+02
+0.3446775288933333E+01 +0.1222845014989920E+02 +0.3619038276446541E+00 +0.1222357440799483E+02
+0.3483057134080000E+01 +0.1231678144146959E+02 +0.3747694175839074E+00 +0.1231167307899224E+02
+0.3519338979226667E+01 +0.1240823800278579E+02 +0.3883463217807875E+00 +0.1240287820432212E+02
+0.3555620824373333E+01 +0.1250299072322581E+02 +0.4026939600829573E+00 +0.1249735864960996E+02
+0.3591902669520000E+01 +0.1260122448750184E+02 +0.4178782968974676E+00 +0.1259529700207529E+02
+0.3628184514666667E+01 +0.1270313967172058E+02 +0.4339727437448552E+00 +0.1269689102179479E+02
+0.3664466359813333E+01 +0.1280895383722896E+02 +0.4510592121110125E+00 +0.1280235528210119E+02
+0.3700748204960000E+01 +0.1291890365332397E+02 +0.4692293460972175E+00 +0.1291192302826214E+02
+0.3737030050106667E+01 +0.1303324708554306E+02 +0.4885859710714243E+00 +0.1302584828872519E+02
+0.3773311895253333E+01 +0.1315226589303694E+02 +0.5092448029649559E+00 +0.1314440827936833E+02
+0.3809593740400000E+01 +0.1327626848671950E+02 +0.5313364735467025E+00 +0.1326790614855852E+02
+0.3845875585546667E+01 +0.1340559320980348E+02 +0.5550089406171307E+00 +0.1339667411966309E+02
+0.3882157430693333E+01 +0.1354061211435459E+02 +0.5804303694987210E+00 +0.1353107709826991E+02
+0.3918439275840000E+01 +0.1368173532211392E+02 +0.6077925946714017E+00 +0.1367151682412494E+02
+0.3954721120986667E+01 +0.1382941607562955E+02 +0.6373152995549554E+00 +0.1381843666310911E+02
+0.3991002966133334E+01 +0.1398415660741975E+02 +0.6692510905193776E+00 +0.1397232715293180E+02
+0.4027284811280000E+01 +0.1414651498131411E+02 +0.7038916912957456E+00 +0.1413373243815571E+02
+0.4063566656426667E+01 +0.1431711309228775E+02 +0.7415755503453378E+00 +0.1430325775623066E+02
+0.4099848501573334E+01 +0.1449664605015892E+02 +0.7826972424108517E+00 +0.1448157816688411E+02
+0.4136130346720000E+01 +0.1468589321967952E+02 +0.8277191648671947E+00 +0.1466944875277299E+02
+0.4172412191866667E+01 +0.1488573124596513E+02 +0.8771861916352848E+00 +0.1486771655951087E+02
+0.4208694037013334E+01 +0.1509714946065742E+02 +0.9317441695999393E+00 +0.1507733458677691E+02
+0.4244975882160000E+01 +0.1532126814044132E+02 +0.9921634497529127E+00 +0.1529937818590802E+02
+0.4281257727306667E+01 +0.1555936017303211E+02 +0.1059369074399645E+01 +0.1553506425608540E+02
+0.4317539572453333E+01 +0.1581287676932410E+02 +0.1134479847091115E+01 +0.1578577364683827E+02
+0.4353821417600001E+01 +0.1608347792763708E+02 +0.1218859374745770E+01 +0.1605307714206263E+02
+0.4390103262746667E+01 +0.1637306837259340E+02 +0.1314183414409991E+01 +0.1633876526936847E+02
+0.4426385107893333E+01 +0.1668383958832831E+02 +0.1422529667241858E+01 +0.1664488185400339E+02
+0.4462666953040000E+01 +0.1701831820845984E+02 +0.1546498826879404E+01 +0.1697376054390329E+02
+0.4498948798186666E+01 +0.1737942015059906E+02 +0.1689379652642660E+01 +0.1732806214621417E+02
+0.4535230643333334E+01 +0.1777050797942084E+02 +0.1855376789194365E+01 +0.1771080792709666E+02
+0.4571512488480000E+01 +0.1819544504851834E+02 +0.2049929059453877E+01 +0.1812539888713848E+02
+0.4607794333626667E+01 +0.1865863203327342E+02 +0.2280159643405107E+01 +0.1857560124614274E+02
+0.4644076178773333E+01 +0.1916499558965706E+02 +0.2555520316763233E+01 +0.1906545974433273E+02
+0.4680358023920000E+01 +0.1971986712453401E+02 +0.2888722990440803E+01 +0.1959906472962907E+02
+0.4716639869066667E+01 +0.2032862589231300E+02 +0.3297096534848077E+01 +0.2018003046749635E+02
+0.4752921714213334E+01 +0.2099585180101882E+02 +0.3804565274897789E+01 +0.2081040996754782E+02
+0.4789203559360000E+01 +0.2172347227381551E+02 +0.4444501326037611E+01 +0.2148851813965256E+02
+0.4825485404506667E+01 +0.2250686228495057E+02 +0.5263681662590777E+01 +0.2220466011090212E+02
+0.4861767249653334E+01 +0.2332683287431590E+02 +0.6327222198030534E+01 +0.2293292896171760E+02
+0.4898049094800000E+01 +0.2413362919638912E+02 +0.7722859406731561E+01 +0.2361603237278824E+02
+0.4934330939946666E+01 +0.2481671565333943E+02 +0.9558093765234535E+01 +0.2413944525772103E+02
+0.4970612785093333E+01 +0.2515514119211141E+02 +0.1193074539066444E+02 +0.2429575756733887E+02
+0.5006894630240001E+01 +0.2476518661187198E+02 +0.1482913899514181E+02 +0.2376420945140969E+02
+0.5043176475386667E+01 +0.2314615268864416E+02 +0.1791620782011311E+02 +0.2219088365064823E+02
+0.5079458320533333E+01 +0.2004305797214982E+02 +0.2032794125813671E+02 +0.1948115659430473E+02
+0.5115740165680000E+01 +0.1606127072246344E+02 +0.2101935999522863E+02 +0.1614903357091836E+02
+0.5152022010826666E+01 +0.1256579575494099E+02 +0.1977777819437238E+02 +0.1316759152049220E+02
+0.5188303855973333E+01 +0.1052142097248595E+02 +0.1749777382513791E+02 +0.1126910693141206E+02
+0.5224585701120001E+01 +0.9910249434146936E+01 +0.1523790082806224E+02 +0.1053568409814101E+02
+0.5260867546266667E+01 +0.1022079779440809E+02 +0.1355683354475089E+02 +0.1062824095244082E+02
+0.5297149391413333E+01 +0.1094921540679143E+02 +0.1257370217582454E+02 +0.1114460604574888E+02
+0.5333431236560000E+01 +0.1175125231120781E+02 +0.1218453806374076E+02 +0.1178705661276781E+02
+0.5369713081706667E+01 +0.1247050654137455E+02 +0.1219772282025001E+02 +0.1240759461804983E+02
+0.5405994926853333E+01 +0.1313858196518375E+02 +0.1247797167248124E+02 +0.1299255491959532E+02
+0.5442276772000000E+01 +0.1383756400197412E+02 +0.1308489323634256E+02 +0.1355745388941139E+02
+0.5478558617146667E+01 +0.1448622753595790E+02 +0.1422218054429080E+02 +0.1400361666769489E+02
+0.5514840462293334E+01 +0.1476065370813489E+02 +0.1604715108625268E+02 +0.1405213879274620E+02
+0.5551122307440000E+01 +0.1413382283662139E+02 +0.1847770251375104E+02 +0.1328667768586665E+02
+0.5587404152586667E+01 +0.1205551799779109E+02 +0.2096270316107513E+02 +0.1134031628579521E+02
+0.5623685997733333E+01 +0.8471207292924563E+01 +0.2241871336705093E+02 +0.8271772091522211E+01
+0.5659967842880000E+01 +0.4337602780466218E+01 +0.2189534441131657E+02 +0.4814026973164012E+01
+0.5696249688026667E+01 +0.1068016424455779E+01 +0.1955330296059276E+02 +0.1977021734852143E+01
+0.5732531533173334E+01 -0.6531719335050594E+00 +0.1644552424310307E+02 +0.3283837673065290E+00
+0.5768813378320000E+01 -0.1039347508871178E+01 +0.1349875589014827E+02 -0.1952071641051701E+00
+0.5805095223466666E+01 -0.6024874216058238E+00 +0.1110984068083240E+02 +0.4806849579948607E-01
+0.5841377068613334E+01 +0.2426838087591687E+00 +0.9321666278016135E+01 +0.7147610677478197E+00
+0.5877658913760000E+01 +0.1246812754752089E+01 +0.8048795606708302E+01 +0.1572930014666258E+01
+0.5913940758906667E+01 +0.2275885796078153E+01 +0.7189238093414172E+01 +0.2486021256276433E+01
+0.5950222604053333E+01 +0.3258348920759977E+01 +0.6657445892724918E+01 +0.3376209884547973E+01
+0.5986504449200001E+01 +0.4154947316149713E+01 +0.6387767379682361E+01 +0.4197935104114475E+01
+0.6022786294346667E+01 +0.4940972054566551E+01 +0.6335784473902848E+01 +0.4919626243388483E+01
+0.6059068139493333E+01 +0.5583389226192694E+01 +0.6472195403987248E+01 +0.5507357792406030E+01
+0.6095349984640000E+01 +0.6032876929664216E+01 +0.6751102612713738E+01 +0.5922789410638833E+01
+0.6131631829786667E+01 +0.6260963549110763E+01 +0.7092302032182120E+01 +0.6144212059100876E+01
+0.6167913674933334E+01 +0.6282183170718331E+01 +0.7423274881856728E+01 +0.6176203639311028E+01
+0.6204195520080000E+01 +0.6107473552116223E+01 +0.7692886131700553E+01 +0.6032010250463084E+01
+0.6240477365226667E+01 +0.5757880482832234E+01 +0.7815308900114071E+01 +0.5744929009957753E+01
+0.6276759210373333E+01 +0.5339376907658709E+01 +0.7722453914618219E+01 +0.5393267161846816E+01
+0.6313041055520000E+01 +0.4956372349089463E+01 +0.7460314088490674E+01 +0.5051196909669288E+01
+0.6349322900666667E+01 +0.4603982565905191E+01 +0.7082358151755887E+01 +0.4739310903170443E+01
+0.6385604745813334E+01 +0.4284690259528169E+01 +0.6543184732746857E+01 +0.4481532465026071E+01
+0.6421886590960000E+01 +0.4110682676791773E+01 +0.5822363048412058E+01 +0.4354458620662878E+01
+0.6458168436106667E+01 +0.4180816927725092E+01 +0.5027933774517371E+01 +0.4424688283848051E+01
+0.6494450281253334E+01 +0.4474785567978421E+01 +0.4296044339603469E+01 +0.4684592846077273E+01
+0.6530732126400000E+01 +0.4908262721005998E+01 +0.3692822418881881E+01 +0.5074867549223656E+01
+0.6567013971546666E+01 +0.5406151050855973E+01 +0.3221769402123447E+01 +0.5534027683641181E+01
+0.6603295816693334E+01 +0.5922839355228584E+01 +0.2861128315086514E+01 +0.6020012718422505E+01
+0.6639577661840001E+01 +0.6435605614629812E+01 +0.2585864931699676E+01 +0.6509463954075474E+01
+0.6675859506986667E+01 +0.6934946017347664E+01 +0.2375075907600399E+01 +0.6991238963440872E+01
+0.6712141352133333E+01 +0.7418093567576271E+01 +0.2213029804618791E+01 +0.7461036190347249E+01
+0.6748423197280000E+01 +0.7885469532612469E+01 +0.2088319856431894E+01 +0.7918091261143815E+01
+0.6784705042426666E+01 +0.8338892616995942E+01 +0.1992761203045683E+01 +0.8363363596013983E+01
+0.6820986887573333E+01 +0.8780713841790586E+01 +0.1920477763172846E+01 +0.8798593152726164E+01
+0.6857268732720001E+01 +0.9213415641520955E+01 +0.1867234641447035E+01 +0.9225827204641314E+01
+0.6893550577866666E+01 +0.9639439074346148E+01 +0.1829971852106760E+01 +0.9647193046448555E+01
+0.6929832423013333E+01 +0.1006112179473960E+02 +0.1806484040854644E+01 +0.1006479759169607E+02
+0.6966114268160000E+01 +0.1048068904610547E+02 +0.1795201707424113E+01 +0.1048069191774503E+02
+0.7002396113306666E+01 +0.1090026943611666E+02 +0.1795042313953906E+01 +0.1089686879378951E+02
+0.7038677958453333E+01 +0.1132192186582503E+02 +0.1805309911006447E+01 +0.1131527681854020E+02
+0.7074959803600001E+01 +0.1174766725923713E+02 +0.1825629200967039E+01 +0.1173784291204841E+02
+0.7111241648746667E+01 +0.1217952239363839E+02 +0.1855904965117249E+01 +0.1216649915920036E+02
+0.7147523493893334E+01 +0.1261953498537329E+02 +0.1896301231242166E+01 +0.1260321224948135E+02
+0.7183805339040001E+01 +0.1306982014330224E+02 +0.1947237020452947E+01 +0.1305001495500931E+02
+0.7220087184186666E+01 +0.1353259881204391E+02 +0.2009397396939788E+01 +0.1350903972787064E+02
+0.7256369029333333E+01 +0.1401023911079555E+02 +0.2083760157563186E+01 +0.1398255482539708E+02
+0.7292650874480000E+01 +0.1450530163138025E+02 +0.2171640087606632E+01 +0.1447300349909384E+02
